Wavelength (nm)	Relative Intensity (a.u.)
350	0.0112
351	0.01173
352	0.01222
353	0.01267
354	0.0131
355	0.01348
356	0.01381
357	0.01408
358	0.01432
359	0.01452
360	0.0147
361	0.01487
362	0.01499
363	0.01515
364	0.01533
365	0.01551
366	0.01579
367	0.01609
368	0.01645
369	0.01687
370	0.01733
371	0.0179
372	0.01852
373	0.01918
374	0.01995
375	0.02077
376	0.02165
377	0.02259
378	0.02357
379	0.0246
380	0.02568
381	0.02678
382	0.02792
383	0.02911
384	0.03027
385	0.03143
386	0.03258
387	0.0337
388	0.0348
389	0.03589
390	0.03696
391	0.03799
392	0.03893
393	0.0399
394	0.04089
395	0.04181
396	0.04274
397	0.04367
398	0.04458
399	0.0455
400	0.04646
401	0.04747
402	0.04851
403	0.04967
404	0.05088
405	0.05217
406	0.0535
407	0.05487
408	0.05631
409	0.05782
410	0.05942
411	0.06108
412	0.0628
413	0.06452
414	0.06634
415	0.0682
416	0.0701
417	0.07208
418	0.07409
419	0.07615
420	0.07828
421	0.08047
422	0.08264
423	0.08483
424	0.08711
425	0.08939
426	0.09172
427	0.09406
428	0.09647
429	0.09914
430	0.10185
431	0.10453
432	0.10724
433	0.11006
434	0.11289
435	0.11573
436	0.11866
437	0.12158
438	0.12456
439	0.12757
440	0.13064
441	0.13372
442	0.13683
443	0.14001
444	0.14322
445	0.14646
446	0.1497
447	0.15296
448	0.15624
449	0.15958
450	0.16295
451	0.16626
452	0.16961
453	0.17299
454	0.17635
455	0.17964
456	0.18301
457	0.1863
458	0.18961
459	0.1929
460	0.19619
461	0.19946
462	0.20276
463	0.20607
464	0.20932
465	0.21262
466	0.21589
467	0.21921
468	0.22261
469	0.22601
470	0.22949
471	0.2331
472	0.23679
473	0.24046
474	0.24436
475	0.24839
476	0.25262
477	0.25693
478	0.26142
479	0.26608
480	0.27089
481	0.27585
482	0.281
483	0.28624
484	0.29162
485	0.29688
486	0.30254
487	0.30825
488	0.31375
489	0.31977
490	0.32558
491	0.33159
492	0.33715
493	0.34335
494	0.34973
495	0.35619
496	0.36247
497	0.36881
498	0.37492
499	0.38116
500	0.38776
501	0.39437
502	0.40106
503	0.40819
504	0.41494
505	0.42156
506	0.4285
507	0.43541
508	0.44256
509	0.44961
510	0.45702
511	0.46444
512	0.47147
513	0.479
514	0.48641
515	0.49393
516	0.50121
517	0.50849
518	0.51601
519	0.52359
520	0.53105
521	0.53809
522	0.54522
523	0.55256
524	0.55961
525	0.56695
526	0.57405
527	0.5816
528	0.58871
529	0.596
530	0.60357
531	0.61079
532	0.61834
533	0.62565
534	0.63315
535	0.64076
536	0.64814
537	0.65544
538	0.66233
539	0.66953
540	0.67659
541	0.6839
542	0.69097
543	0.69786
544	0.70471
545	0.71174
546	0.71857
547	0.72528
548	0.73171
549	0.73807
550	0.7445
551	0.75111
552	0.75743
553	0.76373
554	0.76998
555	0.77608
556	0.78208
557	0.78834
558	0.79429
559	0.80023
560	0.80653
561	0.81272
562	0.81878
563	0.82456
564	0.83034
565	0.83601
566	0.84176
567	0.84756
568	0.85284
569	0.85822
570	0.86358
571	0.86881
572	0.87406
573	0.87912
574	0.88398
575	0.88862
576	0.89307
577	0.89745
578	0.90181
579	0.90591
580	0.91004
581	0.91415
582	0.91824
583	0.92203
584	0.92565
585	0.92933
586	0.9328
587	0.93622
588	0.93955
589	0.94304
590	0.94638
591	0.9497
592	0.95274
593	0.95588
594	0.9588
595	0.96191
596	0.96478
597	0.96762
598	0.97052
599	0.97322
600	0.97578
601	0.97817
602	0.98048
603	0.98286
604	0.98492
605	0.98691
606	0.98881
607	0.99036
608	0.9918
609	0.99337
610	0.99457
611	0.99573
612	0.99677
613	0.99744
614	0.99803
615	0.99861
616	0.999
617	0.99932
618	0.99975
619	0.99991
620	1.00007
621	1
622	0.99999
623	0.9999
624	0.99961
625	0.99955
626	0.99917
627	0.99891
628	0.99852
629	0.99822
630	0.99781
631	0.99752
632	0.99688
633	0.99667
634	0.99604
635	0.99564
636	0.99481
637	0.99402
638	0.99317
639	0.99209
640	0.9911
641	0.98981
642	0.98846
643	0.9869
644	0.9856
645	0.98397
646	0.98246
647	0.9808
648	0.97899
649	0.97719
650	0.97521
651	0.97285
652	0.97063
653	0.96851
654	0.96612
655	0.96372
656	0.9611
657	0.95836
658	0.95581
659	0.95315
660	0.95034
661	0.94744
662	0.94453
663	0.94157
664	0.93856
665	0.93588
666	0.93292
667	0.92986
668	0.92683
669	0.92357
670	0.92044
671	0.91709
672	0.91357
673	0.91006
674	0.90631
675	0.90258
676	0.89896
677	0.8954
678	0.89194
679	0.88823
680	0.88493
681	0.8813
682	0.87763
683	0.87405
684	0.87047
685	0.86727
686	0.86346
687	0.86027
688	0.85702
689	0.85379
690	0.85063
691	0.84772
692	0.84483
693	0.84212
694	0.83957
695	0.83723
696	0.8348
697	0.83258
698	0.8305
699	0.82849
700	0.82651
701	0.82473
702	0.82306
703	0.82147
704	0.82
705	0.81845
706	0.81723
707	0.81604
708	0.81461
709	0.81345
710	0.81214
711	0.81108
712	0.80976
713	0.8086
714	0.80713
715	0.80586
716	0.80459
717	0.80319
718	0.80212
719	0.80087
720	0.7996
721	0.79862
722	0.79739
723	0.7963
724	0.79528
725	0.79471
726	0.79381
727	0.79257
728	0.79143
729	0.79048
730	0.78964
731	0.78919
732	0.78864
733	0.78789
734	0.78727
735	0.78637
736	0.78533
737	0.78451
738	0.78409
739	0.78343
740	0.78291
741	0.78192
742	0.78152
743	0.78063
744	0.77977
745	0.77945
746	0.77874
747	0.7782
748	0.77751
749	0.77722
750	0.7769
751	0.77636
752	0.77554
753	0.77486
754	0.77481
755	0.77451
756	0.77421
757	0.77415
758	0.77367
759	0.77361
760	0.77303
761	0.773
762	0.77262
763	0.77224
764	0.77195
765	0.77151
766	0.77138
767	0.77104
768	0.77064
769	0.77039
770	0.77024
771	0.77055
772	0.77058
773	0.77083
774	0.77062
775	0.77067
776	0.77082
777	0.77094
778	0.77078
779	0.7707
780	0.77087
781	0.77103
782	0.77109
783	0.77107
784	0.77083
785	0.77075
786	0.77071
787	0.77061
788	0.77055
789	0.7706
790	0.77014
791	0.77019
792	0.76998
793	0.76935
794	0.76887
795	0.7684
796	0.76829
797	0.76809
798	0.76792
799	0.76755
800	0.767
801	0.76705
802	0.76674
803	0.7662
804	0.76559
805	0.76492
806	0.76434
807	0.76384
808	0.76333
809	0.76291
810	0.76238
811	0.76177
812	0.76131
813	0.76077
814	0.7599
815	0.75893
816	0.75829
817	0.75772
818	0.75699
819	0.75629
820	0.75558
821	0.75496
822	0.75411
823	0.75328
824	0.75259
825	0.75206
826	0.75148
827	0.75115
828	0.75049
829	0.75008
830	0.74956
831	0.74899
832	0.74848
833	0.74808
834	0.74768
835	0.74726
836	0.74664
837	0.74616
838	0.74567
839	0.74504
840	0.74472
841	0.74434
842	0.74378
843	0.7433
844	0.74282
845	0.74222
846	0.74187
847	0.74153
848	0.74084
849	0.7404
850	0.73982
851	0.73898
852	0.73834
853	0.73775
854	0.73719
855	0.73641
856	0.73562
857	0.73511
858	0.73438
859	0.73372
860	0.73308
861	0.73249
862	0.73179
863	0.73098
864	0.73015
865	0.72961
866	0.72864
867	0.72787
868	0.7268
869	0.72607
870	0.72512
871	0.72409
872	0.7232
873	0.72218
874	0.72122
875	0.72031
876	0.71948
877	0.71805
878	0.71711
879	0.71583
880	0.71476
881	0.71364
882	0.71233
883	0.71114
884	0.71015
885	0.70901
886	0.70766
887	0.70654
888	0.70529
889	0.70431
890	0.70335
891	0.70215
892	0.70097
893	0.69994
894	0.69895
895	0.69787
896	0.69677
897	0.69581
898	0.69444
899	0.69319
900	0.69203
901	0.69079
902	0.68971
903	0.68835
904	0.6871
905	0.68598
906	0.68496
907	0.68395
908	0.683
909	0.682
910	0.68088
911	0.67961
912	0.67858
913	0.67713
914	0.67603
915	0.67502
916	0.6738
917	0.67266
918	0.67125
919	0.67053
920	0.66923
921	0.66818
922	0.66708
923	0.6661
924	0.66477
925	0.66364
926	0.66242
927	0.66101
928	0.65961
929	0.65838
930	0.65708
931	0.65563
932	0.65431
933	0.65311
934	0.65176
935	0.65049
936	0.6491
937	0.64786
938	0.64674
939	0.64549
940	0.64409
941	0.64295
942	0.64146
943	0.64026
944	0.63882
945	0.63766
946	0.63621
947	0.63525
948	0.63403
949	0.63279
950	0.63172
951	0.6305
952	0.62921
953	0.62791
954	0.62673
955	0.62541
956	0.62418
957	0.62289
958	0.62176
959	0.62034
960	0.61923
961	0.61814
962	0.6171
963	0.61598
964	0.61481
965	0.61377
966	0.61261
967	0.61133
968	0.61046
969	0.60931
970	0.60838
971	0.60733
972	0.6063
973	0.60528
974	0.60449
975	0.60336
976	0.60247
977	0.60163
978	0.60066
979	0.59965
980	0.5986
981	0.59764
982	0.59656
983	0.59551
984	0.59456
985	0.59382
986	0.59305
987	0.59208
988	0.59133
989	0.59042
990	0.58946
991	0.58877
992	0.58793
993	0.58713
994	0.58629
995	0.58561
996	0.58464
997	0.58399
998	0.5831
999	0.58219
1000	0.5814